#FIG 3.2  Produced by xfig version 3.2.7a
Landscape
Center
Inches
Letter
100.00
Single
-2
1200 2
6 1500 600 2700 1200
2 1 0 1 0 7 50 -1 -1 0.000 0 0 -1 0 0 5
	 1500 1200 2100 1200 2100 600 2700 600 2700 1200
-6
6 2700 600 3900 1200
2 1 0 1 0 7 50 -1 -1 0.000 0 0 -1 0 0 5
	 2700 1200 3300 1200 3300 600 3900 600 3900 1200
-6
6 3900 600 5100 1200
2 1 0 1 0 7 50 -1 -1 0.000 0 0 -1 0 0 5
	 3900 1200 4500 1200 4500 600 5100 600 5100 1200
-6
6 5100 600 6300 1200
2 1 0 1 0 7 50 -1 -1 0.000 0 0 -1 0 0 5
	 5100 1200 5700 1200 5700 600 6300 600 6300 1200
-6
6 6300 600 7500 1200
2 1 0 1 0 7 50 -1 -1 0.000 0 0 -1 0 0 5
	 6300 1200 6900 1200 6900 600 7500 600 7500 1200
-6
6 7500 600 8700 1200
2 1 0 1 0 7 50 -1 -1 0.000 0 0 -1 0 0 5
	 7500 1200 8100 1200 8100 600 8700 600 8700 1200
-6
6 8700 600 9900 1200
2 1 0 1 0 7 50 -1 -1 0.000 0 0 -1 0 0 5
	 8700 1200 9300 1200 9300 600 9900 600 9900 1200
-6
6 3300 3600 4500 4200
2 1 0 1 0 7 50 -1 -1 0.000 0 0 -1 0 0 3
	 3300 3600 3600 4200 4500 4200
2 1 0 1 0 7 50 -1 -1 0.000 0 0 -1 0 0 3
	 4500 3600 3600 3600 3300 4200
-6
6 2100 3600 3300 4200
2 1 0 1 0 7 50 -1 -1 0.000 0 0 -1 0 0 3
	 2100 3600 2400 4200 3300 4200
2 1 0 1 0 7 50 -1 -1 0.000 0 0 -1 0 0 3
	 3300 3600 2400 3600 2100 4200
-6
6 4500 3600 5700 4200
2 1 0 1 0 7 50 -1 -1 0.000 0 0 -1 0 0 3
	 4500 3600 4800 4200 5700 4200
2 1 0 1 0 7 50 -1 -1 0.000 0 0 -1 0 0 3
	 5700 3600 4800 3600 4500 4200
-6
6 5700 3600 6900 4200
2 1 0 1 0 7 50 -1 -1 0.000 0 0 -1 0 0 3
	 5700 3600 6000 4200 6900 4200
2 1 0 1 0 7 50 -1 -1 0.000 0 0 -1 0 0 3
	 6900 3600 6000 3600 5700 4200
-6
6 6900 3600 8100 4200
2 1 0 1 0 7 50 -1 -1 0.000 0 0 -1 0 0 3
	 6900 3600 7200 4200 8100 4200
2 1 0 1 0 7 50 -1 -1 0.000 0 0 -1 0 0 3
	 8100 3600 7200 3600 6900 4200
-6
6 8100 3600 9300 4200
2 1 0 1 0 7 50 -1 -1 0.000 0 0 -1 0 0 3
	 8100 3600 8400 4200 9300 4200
2 1 0 1 0 7 50 -1 -1 0.000 0 0 -1 0 0 3
	 9300 3600 8400 3600 8100 4200
-6
6 9300 3600 10500 4200
2 1 0 1 0 7 50 -1 -1 0.000 0 0 -1 0 0 3
	 9300 3600 9600 4200 10500 4200
2 1 0 1 0 7 50 -1 -1 0.000 0 0 -1 0 0 3
	 10500 3600 9600 3600 9300 4200
-6
6 10500 3600 11700 4200
2 1 0 1 0 7 50 -1 -1 0.000 0 0 -1 0 0 3
	 10500 3600 10800 4200 11700 4200
2 1 0 1 0 7 50 -1 -1 0.000 0 0 -1 0 0 3
	 11700 3600 10800 3600 10500 4200
-6
6 11700 3600 12900 4200
2 1 0 1 0 7 50 -1 -1 0.000 0 0 -1 0 0 3
	 11700 3600 12000 4200 12900 4200
2 1 0 1 0 7 50 -1 -1 0.000 0 0 -1 0 0 3
	 12900 3600 12000 3600 11700 4200
-6
6 12900 3600 14100 4200
2 1 0 1 0 7 50 -1 -1 0.000 0 0 -1 0 0 3
	 12900 3600 13200 4200 14100 4200
2 1 0 1 0 7 50 -1 -1 0.000 0 0 -1 0 0 3
	 14100 3600 13200 3600 12900 4200
-6
6 14100 3600 15300 4200
2 1 0 1 0 7 50 -1 -1 0.000 0 0 -1 0 0 3
	 14100 3600 14400 4200 15300 4200
2 1 0 1 0 7 50 -1 -1 0.000 0 0 -1 0 0 3
	 15300 3600 14400 3600 14100 4200
-6
6 15300 3600 16500 4200
2 1 0 1 0 7 50 -1 -1 0.000 0 0 -1 0 0 3
	 15300 3600 15600 4200 16500 4200
2 1 0 1 0 7 50 -1 -1 0.000 0 0 -1 0 0 3
	 16500 3600 15600 3600 15300 4200
-6
6 9900 600 11100 1200
2 1 0 1 0 7 50 -1 -1 0.000 0 0 -1 0 0 5
	 9900 1200 10500 1200 10500 600 11100 600 11100 1200
-6
6 11100 600 12300 1200
2 1 0 1 0 7 50 -1 -1 0.000 0 0 -1 0 0 5
	 11100 1200 11700 1200 11700 600 12300 600 12300 1200
-6
6 12300 600 13500 1200
2 1 0 1 0 7 50 -1 -1 0.000 0 0 -1 0 0 5
	 12300 1200 12900 1200 12900 600 13500 600 13500 1200
-6
6 13500 600 14700 1200
2 1 0 1 0 7 50 -1 -1 0.000 0 0 -1 0 0 5
	 13500 1200 14100 1200 14100 600 14700 600 14700 1200
-6
6 14700 600 15900 1200
2 1 0 1 0 7 50 -1 -1 0.000 0 0 -1 0 0 5
	 14700 1200 15300 1200 15300 600 15900 600 15900 1200
-6
6 15900 600 17100 1200
2 1 0 1 0 7 50 -1 -1 0.000 0 0 -1 0 0 5
	 15900 1200 16500 1200 16500 600 17100 600 17100 1200
-6
2 1 0 1 0 7 50 -1 -1 0.000 0 0 -1 0 0 5
	 1500 2100 3900 2100 3900 1500 6300 1500 6300 2100
2 1 0 1 0 7 50 -1 -1 0.000 0 0 -1 0 0 2
	 6300 2100 8700 2100
2 1 0 1 0 7 50 -1 -1 0.000 0 0 -1 0 0 6
	 8700 2100 12300 2100 12300 1500 14700 1500 14700 2100 17100 2100
2 1 0 1 0 7 50 -1 -1 0.000 0 0 -1 0 0 2
	 8700 2700 8100 2700
2 1 0 1 0 7 50 -1 -1 0.000 0 0 -1 0 0 2
	 13500 2700 14100 2700
2 1 0 1 0 7 50 -1 -1 0.000 0 0 -1 0 0 2
	 17100 1200 17550 1200
2 1 0 1 0 7 50 -1 -1 0.000 0 0 -1 0 0 2
	 17550 2100 17100 2100
2 1 0 1 0 7 50 -1 -1 0.000 0 0 -1 0 0 3
	 16500 3600 16800 4200 17550 4200
2 1 0 1 0 7 50 -1 -1 0.000 0 0 -1 0 0 3
	 17550 3600 16800 3600 16500 4200
2 1 0 1 0 7 50 -1 -1 0.000 0 0 -1 0 0 8
	 8700 2700 8850 2400 9750 2400 10050 3000 12150 3000 12450 2400
	 13350 2400 13500 2700
4 0 0 50 -1 14 20 0.0000 4 195 585 375 1200 TCK\001
4 0 0 50 -1 14 20 0.0000 4 195 585 375 2100 TMS\001
4 0 0 50 -1 18 16 0.0000 4 210 825 4800 3975 SelDR\001
4 0 0 50 -1 18 16 0.0000 4 210 690 6000 3975 SelIR\001
4 0 0 50 -1 18 16 0.0000 4 270 810 7200 3975 CapIR\001
4 0 0 50 -1 18 16 0.0000 4 210 615 8400 3975 ShIR\001
4 0 0 50 -1 18 16 0.0000 4 210 615 9600 3975 ShIR\001
4 0 0 50 -1 18 16 0.0000 4 210 615 10800 3975 ShIR\001
4 0 0 50 -1 18 16 0.0000 4 210 615 12000 3975 ShIR\001
4 0 0 50 -1 18 16 0.0000 4 210 435 2400 3975 RTI\001
4 0 0 50 -1 18 16 0.0000 4 210 435 3600 3975 RTI\001
4 0 0 50 -1 18 16 0.0000 4 210 735 13200 3975 Ex1IR\001
4 0 0 50 -1 18 16 0.0000 4 270 825 14400 3975 UpdIR\001
4 0 0 50 -1 18 16 0.0000 4 210 435 15600 3975 RTI\001
4 0 0 50 -1 18 16 0.0000 4 210 435 16800 3975 RTI\001
4 0 0 50 -1 22 20 0.0000 4 285 945 375 3975 State\001
4 0 0 50 -1 14 20 0.0000 4 195 585 375 3000 TDI\001
4 0 0 50 -1 18 16 0.0000 4 195 150 12825 2775 1\001
4 0 0 50 -1 18 16 0.0000 4 210 330 8175 3000 ZZ\001
4 0 0 50 -1 18 16 0.0000 4 210 330 13575 3000 ZZ\001
4 0 0 50 -1 18 16 0.0000 4 195 150 9225 2775 1\001
4 0 0 50 -1 18 16 0.0000 4 195 150 10425 2775 0\001
4 0 0 50 -1 18 16 0.0000 4 195 150 11625 2775 0\001
